environment | time (msec),interface | I_Ca | I_Catot (uA_per_uF),interface | membrane_potential | V_m (mV)
0,-6.28613e-5,-81.423
0.1,-6.28613e-5,-81.423
0.2,-6.28612e-5,-81.423
0.3,-6.2861e-5,-81.423
0.4,-6.28609e-5,-81.4231
0.5,-6.28607e-5,-81.4231
0.6,-6.28606e-5,-81.4231
0.7,-6.28604e-5,-81.4231
0.8,-6.28602e-5,-81.4232
0.9,-6.286e-5,-81.4232
1,-6.28598e-5,-81.4232
1.1,-6.28596e-5,-81.4232
1.2,-6.28594e-5,-81.4233
1.3,-6.28592e-5,-81.4233
1.4,-6.2859e-5,-81.4233
1.5,-6.28588e-5,-81.4233
1.6,-6.28586e-5,-81.4233
1.7,-6.28584e-5,-81.4234
1.8,-6.28583e-5,-81.4234
1.9,-6.28581e-5,-81.4234
2,-6.28579e-5,-81.4234
2.1,-6.28577e-5,-81.4234
2.2,-6.28575e-5,-81.4235
2.3,-6.28573e-5,-81.4235
2.4,-6.28572e-5,-81.4235
2.5,-6.2857e-5,-81.4235
2.6,-6.28568e-5,-81.4235
2.7,-6.28567e-5,-81.4235
2.8,-6.28565e-5,-81.4236
2.9,-6.28563e-5,-81.4236
3,-6.28562e-5,-81.4236
3.1,-6.2856e-5,-81.4236
3.2,-6.28559e-5,-81.4236
3.3,-6.28557e-5,-81.4236
3.4,-6.28555e-5,-81.4237
3.5,-6.28554e-5,-81.4237
3.6,-6.28553e-5,-81.4237
3.7,-6.28551e-5,-81.4237
3.8,-6.2855e-5,-81.4237
3.9,-6.28548e-5,-81.4237
4,-6.28547e-5,-81.4238
4.1,-6.28545e-5,-81.4238
4.2,-6.28544e-5,-81.4238
4.3,-6.28543e-5,-81.4238
4.4,-6.28541e-5,-81.4238
4.5,-6.2854e-5,-81.4238
4.6,-6.28539e-5,-81.4238
4.7,-6.28538e-5,-81.4239
4.8,-6.28536e-5,-81.4239
4.9,-6.28535e-5,-81.4239
5,-6.28534e-5,-81.4239
5.1,-6.28533e-5,-81.4239
5.2,-6.28531e-5,-81.4239
5.3,-6.2853e-5,-81.4239
5.4,-6.28529e-5,-81.424
5.5,-6.28528e-5,-81.424
5.6,-6.28527e-5,-81.424
5.7,-6.28526e-5,-81.424
5.8,-6.28525e-5,-81.424
5.9,-6.28523e-5,-81.424
6,-6.28522e-5,-81.424
6.1,-6.28521e-5,-81.424
6.2,-6.2852e-5,-81.424
6.3,-6.28519e-5,-81.4241
6.4,-6.28518e-5,-81.4241
6.5,-6.28517e-5,-81.4241
6.6,-6.28516e-5,-81.4241
6.7,-6.28515e-5,-81.4241
6.8,-6.28514e-5,-81.4241
6.9,-6.28513e-5,-81.4241
7,-6.28512e-5,-81.4241
7.1,-6.28511e-5,-81.4241
7.2,-6.28511e-5,-81.4242
7.3,-6.2851e-5,-81.4242
7.4,-6.28509e-5,-81.4242
7.5,-6.28508e-5,-81.4242
7.6,-6.28507e-5,-81.4242
7.7,-6.28506e-5,-81.4242
7.8,-6.28505e-5,-81.4242
7.9,-6.28504e-5,-81.4242
8,-6.28503e-5,-81.4242
8.1,-6.28503e-5,-81.4243
8.2,-6.28502e-5,-81.4243
8.3,-6.28501e-5,-81.4243
8.4,-6.285e-5,-81.4243
8.5,-6.28499e-5,-81.4243
8.6,-6.28499e-5,-81.4243
8.7,-6.28498e-5,-81.4243
8.8,-6.28497e-5,-81.4243
8.9,-6.28496e-5,-81.4243
9,-6.28495e-5,-81.4243
9.1,-6.28495e-5,-81.4243
9.2,-6.28494e-5,-81.4244
9.3,-6.28493e-5,-81.4244
9.4,-6.28492e-5,-81.4244
9.5,-6.28492e-5,-81.4244
9.6,-6.28491e-5,-81.4244
9.7,-6.2849e-5,-81.4244
9.8,-6.2849e-5,-81.4244
9.9,-6.28489e-5,-81.4244
10,-6.28488e-5,-81.4244
10.1,-6.28488e-5,-81.4244
10.2,-6.28487e-5,-81.4244
10.3,-6.28486e-5,-81.4244
10.4,-6.28486e-5,-81.4245
10.5,-6.28485e-5,-81.4245
10.6,-6.28484e-5,-81.4245
10.7,-6.28484e-5,-81.4245
10.8,-6.28483e-5,-81.4245
10.9,-6.28482e-5,-81.4245
11,-6.28482e-5,-81.4245
11.1,-6.28481e-5,-81.4245
11.2,-6.2848e-5,-81.4245
11.3,-6.2848e-5,-81.4245
11.4,-6.28479e-5,-81.4245
11.5,-6.28479e-5,-81.4245
11.6,-6.28478e-5,-81.4245
11.7,-6.28477e-5,-81.4246
11.8,-6.28477e-5,-81.4246
11.9,-6.28476e-5,-81.4246
12,-6.28476e-5,-81.4246
12.1,-6.28475e-5,-81.4246
12.2,-6.28474e-5,-81.4246
12.3,-6.28474e-5,-81.4246
12.4,-6.28473e-5,-81.4246
12.5,-6.28473e-5,-81.4246
12.6,-6.28472e-5,-81.4246
12.7,-6.28472e-5,-81.4246
12.8,-6.28471e-5,-81.4246
12.9,-6.28471e-5,-81.4246
13,-6.2847e-5,-81.4246
13.1,-6.28469e-5,-81.4247
13.2,-6.28469e-5,-81.4247
13.3,-6.28468e-5,-81.4247
13.4,-6.28468e-5,-81.4247
13.5,-6.28467e-5,-81.4247
13.6,-6.28467e-5,-81.4247
13.7,-6.28466e-5,-81.4247
13.8,-6.28466e-5,-81.4247
13.9,-6.28465e-5,-81.4247
14,-6.28465e-5,-81.4247
14.1,-6.28464e-5,-81.4247
14.2,-6.28464e-5,-81.4247
14.3,-6.28463e-5,-81.4247
14.4,-6.28463e-5,-81.4247
14.5,-6.28462e-5,-81.4247
14.6,-6.28462e-5,-81.4248
14.7,-6.28461e-5,-81.4248
14.8,-6.28461e-5,-81.4248
14.9,-6.2846e-5,-81.4248
15,-6.2846e-5,-81.4248
15.1,-6.28459e-5,-81.4248
15.2,-6.28459e-5,-81.4248
15.3,-6.28458e-5,-81.4248
15.4,-6.28458e-5,-81.4248
15.5,-6.28457e-5,-81.4248
15.6,-6.28457e-5,-81.4248
15.7,-6.28456e-5,-81.4248
15.8,-6.28456e-5,-81.4248
15.9,-6.28456e-5,-81.4248
16,-6.28455e-5,-81.4248
16.1,-6.28455e-5,-81.4248
16.2,-6.28454e-5,-81.4249
16.3,-6.28454e-5,-81.4249
16.4,-6.28453e-5,-81.4249
16.5,-6.28453e-5,-81.4249
16.6,-6.28452e-5,-81.4249
16.7,-6.28452e-5,-81.4249
16.8,-6.28451e-5,-81.4249
16.9,-6.28451e-5,-81.4249
17,-6.28451e-5,-81.4249
17.1,-6.2845e-5,-81.4249
17.2,-6.2845e-5,-81.4249
17.3,-6.28449e-5,-81.4249
17.4,-6.28449e-5,-81.4249
17.5,-6.28448e-5,-81.4249
17.6,-6.28448e-5,-81.4249
17.7,-6.28448e-5,-81.4249
17.8,-6.28447e-5,-81.4249
17.9,-6.28447e-5,-81.425
18,-6.28446e-5,-81.425
18.1,-6.28446e-5,-81.425
18.2,-6.28445e-5,-81.425
18.3,-6.28445e-5,-81.425
18.4,-6.28445e-5,-81.425
18.5,-6.28444e-5,-81.425
18.6,-6.28444e-5,-81.425
18.7,-6.28443e-5,-81.425
18.8,-6.28443e-5,-81.425
18.9,-6.28443e-5,-81.425
19,-6.28442e-5,-81.425
19.1,-6.28442e-5,-81.425
19.2,-6.28441e-5,-81.425
19.3,-6.28441e-5,-81.425
19.4,-6.28441e-5,-81.425
19.5,-6.2844e-5,-81.425
19.6,-6.2844e-5,-81.425
19.7,-6.28439e-5,-81.4251
19.8,-6.28439e-5,-81.4251
19.9,-6.28439e-5,-81.4251
20,-6.28438e-5,-81.4251
20.1,-6.28438e-5,-81.4251
20.2,-6.28437e-5,-81.4251
20.3,-6.28437e-5,-81.4251
20.4,-6.28437e-5,-81.4251
20.5,-6.28436e-5,-81.4251
20.6,-6.28436e-5,-81.4251
20.7,-6.28435e-5,-81.4251
20.8,-6.28435e-5,-81.4251
20.9,-6.28435e-5,-81.4251
21,-6.28434e-5,-81.4251
21.1,-6.28434e-5,-81.4251
21.2,-6.28433e-5,-81.4251
21.3,-6.28433e-5,-81.4251
21.4,-6.28433e-5,-81.4251
21.5,-6.28432e-5,-81.4251
21.6,-6.28432e-5,-81.4252
21.7,-6.28432e-5,-81.4252
21.8,-6.28431e-5,-81.4252
21.9,-6.28431e-5,-81.4252
22,-6.2843e-5,-81.4252
22.1,-6.2843e-5,-81.4252
22.2,-6.2843e-5,-81.4252
22.3,-6.28429e-5,-81.4252
22.4,-6.28429e-5,-81.4252
22.5,-6.28429e-5,-81.4252
22.6,-6.28428e-5,-81.4252
22.7,-6.28428e-5,-81.4252
22.8,-6.28427e-5,-81.4252
22.9,-6.28427e-5,-81.4252
23,-6.28427e-5,-81.4252
23.1,-6.28426e-5,-81.4252
23.2,-6.28426e-5,-81.4252
23.3,-6.28426e-5,-81.4252
23.4,-6.28425e-5,-81.4252
23.5,-6.28425e-5,-81.4253
23.6,-6.28424e-5,-81.4253
23.7,-6.28424e-5,-81.4253
23.8,-6.28424e-5,-81.4253
23.9,-6.28423e-5,-81.4253
24,-6.28423e-5,-81.4253
24.1,-6.28423e-5,-81.4253
24.2,-6.28422e-5,-81.4253
24.3,-6.28422e-5,-81.4253
24.4,-6.28422e-5,-81.4253
24.5,-6.28421e-5,-81.4253
24.6,-6.28421e-5,-81.4253
24.7,-6.2842e-5,-81.4253
24.8,-6.2842e-5,-81.4253
24.9,-6.2842e-5,-81.4253
25,-6.28419e-5,-81.4253
25.1,-6.28419e-5,-81.4253
25.2,-6.28419e-5,-81.4253
25.3,-6.28418e-5,-81.4253
25.4,-6.28418e-5,-81.4253
25.5,-6.28418e-5,-81.4254
25.6,-6.28417e-5,-81.4254
25.7,-6.28417e-5,-81.4254
25.8,-6.28417e-5,-81.4254
25.9,-6.28416e-5,-81.4254
26,-6.28416e-5,-81.4254
26.1,-6.28416e-5,-81.4254
26.2,-6.28415e-5,-81.4254
26.3,-6.28415e-5,-81.4254
26.4,-6.28414e-5,-81.4254
26.5,-6.28414e-5,-81.4254
26.6,-6.28414e-5,-81.4254
26.7,-6.28413e-5,-81.4254
26.8,-6.28413e-5,-81.4254
26.9,-6.28413e-5,-81.4254
27,-6.28412e-5,-81.4254
27.1,-6.28412e-5,-81.4254
27.2,-6.28412e-5,-81.4254
27.3,-6.28411e-5,-81.4254
27.4,-6.28411e-5,-81.4254
27.5,-6.28411e-5,-81.4254
27.6,-6.2841e-5,-81.4255
27.7,-6.2841e-5,-81.4255
27.8,-6.2841e-5,-81.4255
27.9,-6.28409e-5,-81.4255
28,-6.28409e-5,-81.4255
28.1,-6.28409e-5,-81.4255
28.2,-6.28408e-5,-81.4255
28.3,-6.28408e-5,-81.4255
28.4,-6.28408e-5,-81.4255
28.5,-6.28407e-5,-81.4255
28.6,-6.28407e-5,-81.4255
28.7,-6.28407e-5,-81.4255
28.8,-6.28406e-5,-81.4255
28.9,-6.28406e-5,-81.4255
29,-6.28406e-5,-81.4255
29.1,-6.28405e-5,-81.4255
29.2,-6.28405e-5,-81.4255
29.3,-6.28404e-5,-81.4255
29.4,-6.28404e-5,-81.4255
29.5,-6.28404e-5,-81.4255
29.6,-6.28403e-5,-81.4256
29.7,-6.28403e-5,-81.4256
29.8,-6.28403e-5,-81.4256
29.9,-6.28402e-5,-81.4256
30,-6.28402e-5,-81.4256
30.1,-6.28402e-5,-81.4256
30.2,-6.28401e-5,-81.4256
30.3,-6.28401e-5,-81.4256
30.4,-6.28401e-5,-81.4256
30.5,-6.284e-5,-81.4256
30.6,-6.284e-5,-81.4256
30.7,-6.284e-5,-81.4256
30.8,-6.28399e-5,-81.4256
30.9,-6.28399e-5,-81.4256
31,-6.28399e-5,-81.4256
31.1,-6.28398e-5,-81.4256
31.2,-6.28398e-5,-81.4256
31.3,-6.28398e-5,-81.4256
31.4,-6.28397e-5,-81.4256
31.5,-6.28397e-5,-81.4256
31.6,-6.28397e-5,-81.4256
31.7,-6.28396e-5,-81.4256
31.8,-6.28396e-5,-81.4257
31.9,-6.28396e-5,-81.4257
32,-6.28395e-5,-81.4257
32.1,-6.28395e-5,-81.4257
32.2,-6.28395e-5,-81.4257
32.3,-6.28394e-5,-81.4257
32.4,-6.28394e-5,-81.4257
32.5,-6.28394e-5,-81.4257
32.6,-6.28394e-5,-81.4257
32.7,-6.28393e-5,-81.4257
32.8,-6.28393e-5,-81.4257
32.9,-6.28393e-5,-81.4257
33,-6.28392e-5,-81.4257
33.1,-6.28392e-5,-81.4257
33.2,-6.28392e-5,-81.4257
33.3,-6.28391e-5,-81.4257
33.4,-6.28391e-5,-81.4257
33.5,-6.28391e-5,-81.4257
33.6,-6.2839e-5,-81.4257
33.7,-6.2839e-5,-81.4257
33.8,-6.2839e-5,-81.4257
33.9,-6.28389e-5,-81.4258
34,-6.28389e-5,-81.4258
34.1,-6.28389e-5,-81.4258
34.2,-6.28388e-5,-81.4258
34.3,-6.28388e-5,-81.4258
34.4,-6.28388e-5,-81.4258
34.5,-6.28387e-5,-81.4258
34.6,-6.28387e-5,-81.4258
34.7,-6.28387e-5,-81.4258
34.8,-6.28386e-5,-81.4258
34.9,-6.28386e-5,-81.4258
35,-6.28386e-5,-81.4258
35.1,-6.28385e-5,-81.4258
35.2,-6.28385e-5,-81.4258
35.3,-6.28385e-5,-81.4258
35.4,-6.28384e-5,-81.4258
35.5,-6.28384e-5,-81.4258
35.6,-6.28384e-5,-81.4258
35.7,-6.28383e-5,-81.4258
35.8,-6.28383e-5,-81.4258
35.9,-6.28383e-5,-81.4258
36,-6.28383e-5,-81.4258
36.1,-6.28382e-5,-81.4259
36.2,-6.28382e-5,-81.4259
36.3,-6.28382e-5,-81.4259
36.4,-6.28381e-5,-81.4259
36.5,-6.28381e-5,-81.4259
36.6,-6.28381e-5,-81.4259
36.7,-6.2838e-5,-81.4259
36.8,-6.2838e-5,-81.4259
36.9,-6.2838e-5,-81.4259
37,-6.28379e-5,-81.4259
37.1,-6.28379e-5,-81.4259
37.2,-6.28379e-5,-81.4259
37.3,-6.28378e-5,-81.4259
37.4,-6.28378e-5,-81.4259
37.5,-6.28378e-5,-81.4259
37.6,-6.28377e-5,-81.4259
37.7,-6.28377e-5,-81.4259
37.8,-6.28377e-5,-81.4259
37.9,-6.28376e-5,-81.4259
38,-6.28376e-5,-81.4259
38.1,-6.28376e-5,-81.4259
38.2,-6.28376e-5,-81.4259
38.3,-6.28375e-5,-81.426
38.4,-6.28375e-5,-81.426
38.5,-6.28375e-5,-81.426
38.6,-6.28374e-5,-81.426
38.7,-6.28374e-5,-81.426
38.8,-6.28374e-5,-81.426
38.9,-6.28373e-5,-81.426
39,-6.28373e-5,-81.426
39.1,-6.28373e-5,-81.426
39.2,-6.28372e-5,-81.426
39.3,-6.28372e-5,-81.426
39.4,-6.28372e-5,-81.426
39.5,-6.28371e-5,-81.426
39.6,-6.28371e-5,-81.426
39.7,-6.28371e-5,-81.426
39.8,-6.28371e-5,-81.426
39.9,-6.2837e-5,-81.426
40,-6.2837e-5,-81.426
40.1,-6.2837e-5,-81.426
40.2,-6.28369e-5,-81.426
40.3,-6.28369e-5,-81.426
40.4,-6.28369e-5,-81.426
40.5,-6.28368e-5,-81.426
40.6,-6.28368e-5,-81.4261
40.7,-6.28368e-5,-81.4261
40.8,-6.28367e-5,-81.4261
40.9,-6.28367e-5,-81.4261
41,-6.28367e-5,-81.4261
41.1,-6.28367e-5,-81.4261
41.2,-6.28366e-5,-81.4261
41.3,-6.28366e-5,-81.4261
41.4,-6.28366e-5,-81.4261
41.5,-6.28365e-5,-81.4261
41.6,-6.28365e-5,-81.4261
41.7,-6.28365e-5,-81.4261
41.8,-6.28364e-5,-81.4261
41.9,-6.28364e-5,-81.4261
42,-6.28364e-5,-81.4261
42.1,-6.28363e-5,-81.4261
42.2,-6.28363e-5,-81.4261
42.3,-6.28363e-5,-81.4261
42.4,-6.28363e-5,-81.4261
42.5,-6.28362e-5,-81.4261
42.6,-6.28362e-5,-81.4261
42.7,-6.28362e-5,-81.4261
42.8,-6.28361e-5,-81.4262
42.9,-6.28361e-5,-81.4262
43,-6.28361e-5,-81.4262
43.1,-6.2836e-5,-81.4262
43.2,-6.2836e-5,-81.4262
43.3,-6.2836e-5,-81.4262
43.4,-6.28359e-5,-81.4262
43.5,-6.28359e-5,-81.4262
43.6,-6.28359e-5,-81.4262
43.7,-6.28359e-5,-81.4262
43.8,-6.28358e-5,-81.4262
43.9,-6.28358e-5,-81.4262
44,-6.28358e-5,-81.4262
44.1,-6.28357e-5,-81.4262
44.2,-6.28357e-5,-81.4262
44.3,-6.28357e-5,-81.4262
44.4,-6.28356e-5,-81.4262
44.5,-6.28356e-5,-81.4262
44.6,-6.28356e-5,-81.4262
44.7,-6.28356e-5,-81.4262
44.8,-6.28355e-5,-81.4262
44.9,-6.28355e-5,-81.4262
45,-6.28355e-5,-81.4262
45.1,-6.28354e-5,-81.4262
45.2,-6.28354e-5,-81.4263
45.3,-6.28354e-5,-81.4263
45.4,-6.28353e-5,-81.4263
45.5,-6.28353e-5,-81.4263
45.6,-6.28353e-5,-81.4263
45.7,-6.28353e-5,-81.4263
45.8,-6.28352e-5,-81.4263
45.9,-6.28352e-5,-81.4263
46,-6.28352e-5,-81.4263
46.1,-6.28351e-5,-81.4263
46.2,-6.28351e-5,-81.4263
46.3,-6.28351e-5,-81.4263
46.4,-6.2835e-5,-81.4263
46.5,-6.2835e-5,-81.4263
46.6,-6.2835e-5,-81.4263
46.7,-6.2835e-5,-81.4263
46.8,-6.28349e-5,-81.4263
46.9,-6.28349e-5,-81.4263
47,-6.28349e-5,-81.4263
47.1,-6.28348e-5,-81.4263
47.2,-6.28348e-5,-81.4263
47.3,-6.28348e-5,-81.4263
47.4,-6.28347e-5,-81.4263
47.5,-6.28347e-5,-81.4264
47.6,-6.28347e-5,-81.4264
47.7,-6.28347e-5,-81.4264
47.8,-6.28346e-5,-81.4264
47.9,-6.28346e-5,-81.4264
48,-6.28346e-5,-81.4264
48.1,-6.28345e-5,-81.4264
48.2,-6.28345e-5,-81.4264
48.3,-6.28345e-5,-81.4264
48.4,-6.28345e-5,-81.4264
48.5,-6.28344e-5,-81.4264
48.6,-6.28344e-5,-81.4264
48.7,-6.28344e-5,-81.4264
48.8,-6.28343e-5,-81.4264
48.9,-6.28343e-5,-81.4264
49,-6.28343e-5,-81.4264
49.1,-6.28342e-5,-81.4264
49.2,-6.28342e-5,-81.4264
49.3,-6.28342e-5,-81.4264
49.4,-6.28342e-5,-81.4264
49.5,-6.28341e-5,-81.4264
49.6,-6.28341e-5,-81.4264
49.7,-6.28341e-5,-81.4264
49.8,-6.2834e-5,-81.4264
49.9,-6.2834e-5,-81.4265
50,-6.2834e-5,-81.4265
50.1,-6.2834e-5,-81.4265
50.2,-6.28339e-5,-81.4265
50.3,-6.28339e-5,-81.4265
50.4,-6.28339e-5,-81.4265
50.5,-6.28338e-5,-81.4265
50.6,-6.28338e-5,-81.4265
50.7,-6.28338e-5,-81.4265
50.8,-6.28338e-5,-81.4265
50.9,-6.28337e-5,-81.4265
51,-6.28337e-5,-81.4265
51.1,-6.28337e-5,-81.4265
51.2,-6.28336e-5,-81.4265
51.3,-6.28336e-5,-81.4265
51.4,-6.28336e-5,-81.4265
51.5,-6.28335e-5,-81.4265
51.6,-6.28335e-5,-81.4265
51.7,-6.28335e-5,-81.4265
51.8,-6.28335e-5,-81.4265
51.9,-6.28334e-5,-81.4265
52,-6.28334e-5,-81.4265
52.1,-6.28334e-5,-81.4265
52.2,-6.28333e-5,-81.4265
52.3,-6.28333e-5,-81.4266
52.4,-6.28333e-5,-81.4266
52.5,-6.28333e-5,-81.4266
52.6,-6.28332e-5,-81.4266
52.7,-6.28332e-5,-81.4266
52.8,-6.28332e-5,-81.4266
52.9,-6.28331e-5,-81.4266
53,-6.28331e-5,-81.4266
53.1,-6.28331e-5,-81.4266
53.2,-6.28331e-5,-81.4266
53.3,-6.2833e-5,-81.4266
53.4,-6.2833e-5,-81.4266
53.5,-6.2833e-5,-81.4266
53.6,-6.28329e-5,-81.4266
53.7,-6.28329e-5,-81.4266
53.8,-6.28329e-5,-81.4266
53.9,-6.28329e-5,-81.4266
54,-6.28328e-5,-81.4266
54.1,-6.28328e-5,-81.4266
54.2,-6.28328e-5,-81.4266
54.3,-6.28327e-5,-81.4266
54.4,-6.28327e-5,-81.4266
54.5,-6.28327e-5,-81.4266
54.6,-6.28327e-5,-81.4266
54.7,-6.28326e-5,-81.4266
54.8,-6.28326e-5,-81.4267
54.9,-6.28326e-5,-81.4267
55,-6.28325e-5,-81.4267
55.1,-6.28325e-5,-81.4267
55.2,-6.28325e-5,-81.4267
55.3,-6.28325e-5,-81.4267
55.4,-6.28324e-5,-81.4267
55.5,-6.28324e-5,-81.4267
55.6,-6.28324e-5,-81.4267
55.7,-6.28324e-5,-81.4267
55.8,-6.28323e-5,-81.4267
55.9,-6.28323e-5,-81.4267
56,-6.28323e-5,-81.4267
56.1,-6.28322e-5,-81.4267
56.2,-6.28322e-5,-81.4267
56.3,-6.28322e-5,-81.4267
56.4,-6.28322e-5,-81.4267
56.5,-6.28321e-5,-81.4267
56.6,-6.28321e-5,-81.4267
56.7,-6.28321e-5,-81.4267
56.8,-6.2832e-5,-81.4267
56.9,-6.2832e-5,-81.4267
57,-6.2832e-5,-81.4267
57.1,-6.2832e-5,-81.4267
57.2,-6.28319e-5,-81.4267
57.3,-6.28319e-5,-81.4268
57.4,-6.28319e-5,-81.4268
57.5,-6.28318e-5,-81.4268
57.6,-6.28318e-5,-81.4268
57.7,-6.28318e-5,-81.4268
57.8,-6.28318e-5,-81.4268
57.9,-6.28317e-5,-81.4268
58,-6.28317e-5,-81.4268
58.1,-6.28317e-5,-81.4268
58.2,-6.28317e-5,-81.4268
58.3,-6.28316e-5,-81.4268
58.4,-6.28316e-5,-81.4268
58.5,-6.28316e-5,-81.4268
58.6,-6.28315e-5,-81.4268
58.7,-6.28315e-5,-81.4268
58.8,-6.28315e-5,-81.4268
58.9,-6.28315e-5,-81.4268
59,-6.28314e-5,-81.4268
59.1,-6.28314e-5,-81.4268
59.2,-6.28314e-5,-81.4268
59.3,-6.28314e-5,-81.4268
59.4,-6.28313e-5,-81.4268
59.5,-6.28313e-5,-81.4268
59.6,-6.28313e-5,-81.4268
59.7,-6.28312e-5,-81.4268
59.8,-6.28312e-5,-81.4269
59.9,-6.28312e-5,-81.4269
60,-6.28312e-5,-81.4269
60.1,-6.28311e-5,-81.4269
60.2,-6.28311e-5,-81.4269
60.3,-6.28311e-5,-81.4269
60.4,-6.2831e-5,-81.4269
60.5,-6.2831e-5,-81.4269
60.6,-6.2831e-5,-81.4269
60.7,-6.2831e-5,-81.4269
60.8,-6.28309e-5,-81.4269
60.9,-6.28309e-5,-81.4269
61,-6.28309e-5,-81.4269
61.1,-6.28309e-5,-81.4269
61.2,-6.28308e-5,-81.4269
61.3,-6.28308e-5,-81.4269
61.4,-6.28308e-5,-81.4269
61.5,-6.28307e-5,-81.4269
61.6,-6.28307e-5,-81.4269
61.7,-6.28307e-5,-81.4269
61.8,-6.28307e-5,-81.4269
61.9,-6.28306e-5,-81.4269
62,-6.28306e-5,-81.4269
62.1,-6.28306e-5,-81.4269
62.2,-6.28306e-5,-81.4269
62.3,-6.28305e-5,-81.4269
62.4,-6.28305e-5,-81.427
62.5,-6.28305e-5,-81.427
62.6,-6.28305e-5,-81.427
62.7,-6.28304e-5,-81.427
62.8,-6.28304e-5,-81.427
62.9,-6.28304e-5,-81.427
63,-6.28303e-5,-81.427
63.1,-6.28303e-5,-81.427
63.2,-6.28303e-5,-81.427
63.3,-6.28303e-5,-81.427
63.4,-6.28302e-5,-81.427
63.5,-6.28302e-5,-81.427
63.6,-6.28302e-5,-81.427
63.7,-6.28302e-5,-81.427
63.8,-6.28301e-5,-81.427
63.9,-6.28301e-5,-81.427
64,-6.28301e-5,-81.427
64.1,-6.283e-5,-81.427
64.2,-6.283e-5,-81.427
64.3,-6.283e-5,-81.427
64.4,-6.283e-5,-81.427
64.5,-6.28299e-5,-81.427
64.6,-6.28299e-5,-81.427
64.7,-6.28299e-5,-81.427
64.8,-6.28299e-5,-81.427
64.9,-6.28298e-5,-81.427
65,-6.28298e-5,-81.4271
65.1,-6.28298e-5,-81.4271
65.2,-6.28298e-5,-81.4271
65.3,-6.28297e-5,-81.4271
65.4,-6.28297e-5,-81.4271
65.5,-6.28297e-5,-81.4271
65.6,-6.28297e-5,-81.4271
65.7,-6.28296e-5,-81.4271
65.8,-6.28296e-5,-81.4271
65.9,-6.28296e-5,-81.4271
66,-6.28295e-5,-81.4271
66.1,-6.28295e-5,-81.4271
66.2,-6.28295e-5,-81.4271
66.3,-6.28295e-5,-81.4271
66.4,-6.28294e-5,-81.4271
66.5,-6.28294e-5,-81.4271
66.6,-6.28294e-5,-81.4271
66.7,-6.28294e-5,-81.4271
66.8,-6.28293e-5,-81.4271
66.9,-6.28293e-5,-81.4271
67,-6.28293e-5,-81.4271
67.1,-6.28293e-5,-81.4271
67.2,-6.28292e-5,-81.4271
67.3,-6.28292e-5,-81.4271
67.4,-6.28292e-5,-81.4271
67.5,-6.28292e-5,-81.4271
67.6,-6.28291e-5,-81.4272
67.7,-6.28291e-5,-81.4272
67.8,-6.28291e-5,-81.4272
67.9,-6.2829e-5,-81.4272
68,-6.2829e-5,-81.4272
68.1,-6.2829e-5,-81.4272
68.2,-6.2829e-5,-81.4272
68.3,-6.28289e-5,-81.4272
68.4,-6.28289e-5,-81.4272
68.5,-6.28289e-5,-81.4272
68.6,-6.28289e-5,-81.4272
68.7,-6.28288e-5,-81.4272
68.8,-6.28288e-5,-81.4272
68.9,-6.28288e-5,-81.4272
69,-6.28288e-5,-81.4272
69.1,-6.28287e-5,-81.4272
69.2,-6.28287e-5,-81.4272
69.3,-6.28287e-5,-81.4272
69.4,-6.28287e-5,-81.4272
69.5,-6.28286e-5,-81.4272
69.6,-6.28286e-5,-81.4272
69.7,-6.28286e-5,-81.4272
69.8,-6.28286e-5,-81.4272
69.9,-6.28285e-5,-81.4272
70,-6.28285e-5,-81.4272
70.1,-6.28285e-5,-81.4272
70.2,-6.28285e-5,-81.4272
70.3,-6.28284e-5,-81.4273
70.4,-6.28284e-5,-81.4273
70.5,-6.28284e-5,-81.4273
70.6,-6.28283e-5,-81.4273
70.7,-6.28283e-5,-81.4273
70.8,-6.28283e-5,-81.4273
70.9,-6.28283e-5,-81.4273
71,-6.28282e-5,-81.4273
71.1,-6.28282e-5,-81.4273
71.2,-6.28282e-5,-81.4273
71.3,-6.28282e-5,-81.4273
71.4,-6.28281e-5,-81.4273
71.5,-6.28281e-5,-81.4273
71.6,-6.28281e-5,-81.4273
71.7,-6.28281e-5,-81.4273
71.8,-6.2828e-5,-81.4273
71.9,-6.2828e-5,-81.4273
72,-6.2828e-5,-81.4273
72.1,-6.2828e-5,-81.4273
72.2,-6.28279e-5,-81.4273
72.3,-6.28279e-5,-81.4273
72.4,-6.28279e-5,-81.4273
72.5,-6.28279e-5,-81.4273
72.6,-6.28278e-5,-81.4273
72.7,-6.28278e-5,-81.4273
72.8,-6.28278e-5,-81.4273
72.9,-6.28278e-5,-81.4273
73,-6.28277e-5,-81.4273
73.1,-6.28277e-5,-81.4274
73.2,-6.28277e-5,-81.4274
73.3,-6.28277e-5,-81.4274
73.4,-6.28276e-5,-81.4274
73.5,-6.28276e-5,-81.4274
73.6,-6.28276e-5,-81.4274
73.7,-6.28276e-5,-81.4274
73.8,-6.28275e-5,-81.4274
73.9,-6.28275e-5,-81.4274
74,-6.28275e-5,-81.4274
74.1,-6.28275e-5,-81.4274
74.2,-6.28274e-5,-81.4274
74.3,-6.28274e-5,-81.4274
74.4,-6.28274e-5,-81.4274
74.5,-6.28274e-5,-81.4274
74.6,-6.28273e-5,-81.4274
74.7,-6.28273e-5,-81.4274
74.8,-6.28273e-5,-81.4274
74.9,-6.28273e-5,-81.4274
75,-6.28272e-5,-81.4274
75.1,-6.28272e-5,-81.4274
75.2,-6.28272e-5,-81.4274
75.3,-6.28272e-5,-81.4274
75.4,-6.28271e-5,-81.4274
75.5,-6.28271e-5,-81.4274
75.6,-6.28271e-5,-81.4274
75.7,-6.28271e-5,-81.4274
75.8,-6.2827e-5,-81.4274
75.9,-6.2827e-5,-81.4275
76,-6.2827e-5,-81.4275
76.1,-6.2827e-5,-81.4275
76.2,-6.28269e-5,-81.4275
76.3,-6.28269e-5,-81.4275
76.4,-6.28269e-5,-81.4275
76.5,-6.28269e-5,-81.4275
76.6,-6.28268e-5,-81.4275
76.7,-6.28268e-5,-81.4275
76.8,-6.28268e-5,-81.4275
76.9,-6.28268e-5,-81.4275
77,-6.28267e-5,-81.4275
77.1,-6.28267e-5,-81.4275
77.2,-6.28267e-5,-81.4275
77.3,-6.28267e-5,-81.4275
77.4,-6.28266e-5,-81.4275
77.5,-6.28266e-5,-81.4275
77.6,-6.28266e-5,-81.4275
77.7,-6.28266e-5,-81.4275
77.8,-6.28265e-5,-81.4275
77.9,-6.28265e-5,-81.4275
78,-6.28265e-5,-81.4275
